step, energy (Ha), drivative (Ha/Ang), bond length (Ang)
0 0.420839287058789 -0.21391211155178344 1.0213912111551784
1 0.3767844019050137 -0.19812241331350194 1.0412034524865286
2 0.33892048126216634 -0.18421785102520807 1.0596252375890494
3 0.3061289652419232 -0.17188363782080432 1.0768136013711298
4 0.277538117981381 -0.16087139687369467 1.0929007410584992
5 0.25245924851644597 -0.150982495738917 1.1079989906323908
6 0.23034164069206964 -0.14205616917926028 1.122204607550317
7 0.21074010199583046 -0.1339608957480692 1.1356006971251238
8 0.193291203957222 -0.12658803186528286 1.148259500311652
9 0.17769562246838685 -0.11984704167074609 1.1602442044787267
10 0.16370483213685252 -0.11366187401913014 1.1716103918806398
11 0.15111095642346303 -0.10796817675621727 1.1824072095562614
12 0.13973893717141783 -0.10271113063706386 1.1926783226199678
13 0.12944043065586813 -0.0978437476612765 1.2024626973860955
14 0.12008900394138844 -0.09332552155339546 1.211795249541435
15 0.11157632115289161 -0.08912134813104104 1.220707384354539
16 0.10380909089745745 -0.08520065457415568 1.2292274498119546
17 0.09670660436572212 -0.08153669187958577 1.2373811189999133
18 0.09019873577099469 -0.07810595588123437 1.2451917145880367
19 0.08422430757632308 -0.07488771036895997 1.2526804856249327
20 0.07872974570147952 -0.07186359189245702 1.2598668448141783
21 0.07366796686249494 -0.06901728037421063 1.2667685728515994
22 0.06899745296142855 -0.06633422308857946 1.2734019951604574
23 0.06468147713396052 -0.06380140218337349 1.2797821353787948
24 0.060687453477344444 -0.061407137934857345 1.2859228491722805
25 0.05698638819849769 -0.05914092148827804 1.2918369413211084
26 0.053552414361843576 -0.05699327205445825 1.2975362685265541
27 0.05036239588773375 -0.05495561449037166 1.3030318299755912
28 0.047395589183571965 -0.053020173948651765 1.3083338473704564
29 0.04463335295193422 -0.05117988488323526 1.31345183585878
30 0.0420588984414728 -0.04942831218019241 1.3183946670767992
31 0.039657073784550655 -0.047759582570431586 1.3231706253338424
32 0.037414177174597676 -0.0461683247944185 1.3277874578132842
33 0.03531779453310181 -0.044649617243776085 1.332252419537662
34 0.03335665804495473 -0.043198942012604664 1.3365723137389225
35 0.031520522535766614 -0.04181214446193912 1.3407535281851164
36 0.029800057152433373 -0.04048539754125067 1.3448020679392414
37 0.02818675020969482 -0.03921517022711169 1.3487235849619525
38 0.026672825397188623 -0.037998199535626845 1.3525234049155153
39 0.025251167816742966 -0.036831465645659665 1.3562065514800812
40 0.023915258548816827 -0.035712169737160675 1.3597777684537973
41 0.02265911663847352 -0.034637714205377444 1.363241539874335
42 0.021477247551798986 -0.03360568495929401 1.3666021083702644
43 0.020364597288692273 -0.03261383555284113 1.3698634919255486
44 0.01931651145186627 -0.03166007293148642 1.3730294992186973
45 0.01832869866829275 -0.03074244460577528 1.376103743679275
46 0.01739719784113959 -0.029859127088090315 1.379089656388084
47 0.016518348779871107 -0.029008415450005987 1.3819904979330846
48 0.01568876581560163 -0.028188713875717065 1.3848093693206562
49 0.014905314059628565 -0.027398527102575197 1.3875492220309138
50 0.014165088006674998 -0.026636452653171532 1.390212867296231
51 0.01346539222186551 -0.025901173774981783 1.3928029846737293
52 0.012803723882773677 -0.025191453013614994 1.3953221299750909
53 0.012177756975791315 -0.02450612635440327 1.397772742610531
54 0.011585327970238103 -0.023844097874636698 1.4001571523979948
55 0.011024422814595002 -0.023204334855338564 1.4024775858835286
56 0.010493165117474924 -0.022585863307235075 1.404736172214252
57 0.009989805391821665 -0.02198776387060985 1.406934948601313
58 0.009512711254690616 -0.02140916805315273 1.4090758654066282
59 0.009060358487085984 -0.02084925477379274 1.4111607908840076
60 0.008631322868947902 -0.020307247183918575 1.4131915156023995
61 0.008224272713705214 -0.019782409740402292 1.4151697565764398
62 0.007837962035004687 -0.019274045507500413 1.4170971611271899
63 0.0074712242854446265 -0.018781493667058228 1.4189753104938956
64 0.007122966613509178 -0.018304127218528674 1.4208057232157485
65 0.00679216459052471 -0.017841350852165903 1.422589858300965
66 0.006477857364439258 -0.017392598980398993 1.424329118199005
67 0.006179143201638103 -0.016957333913854206 1.4260248515903904
68 0.005895175381926285 -0.016535044169800492 1.4276783560073705
69 0.00562515841528994 -0.01612524290195746 1.4292908802975661
70 0.0053683445521481256 -0.01572746644164743 1.430863626941731
71 0.005124030561568794 -0.015341272941205297 1.4323977542358515
72 0.004891554754389938 -0.014966241111398434 1.4338943783469913
73 0.004670294230388371 -0.01460196904535594 1.4353545752515269
74 0.004459662330613644 -0.014248073122185984 1.4367793825637454
75 0.0042591062777691145 -0.013904186984063142 1.4381698012621518
76 0.004068104989109 -0.013569960581117629 1.4395267973202635
77 0.00388616704774362 -0.013245059278951329 1.4408513032481587
78 0.0037128288195245125 -0.012929163024050184 1.4421442195505636
79 0.003547652703834853 -0.012621965562767894 1.4434064161068403
80 0.0033902255076482305 -0.012323173709919045 1.4446387334778321
81 0.0032401569331559177 -0.012032506663350649 1.4458419841441672
82 0.003097078170110174 -0.011749695361163081 1.4470169536802835
83 0.002960640584794162 -0.011474481878520092 1.4481644018681354
84 0.0028305144982237536 -0.011206618861239383 1.4492850637542594
85 0.0027063880468120543 -0.010945868993577468 1.450379650653617
86 0.002587966119297053 -0.01069200449782913 1.4514488511034
87 0.0024749693642489123 -0.010444806663548736 1.4524933317697548
88 0.0023671332629424577 -0.010204065404371352 1.453513738310192
89 0.0022642072628066877 -0.009969578840567142 1.4545106961942487
90 0.0021659539670518435 -0.009741152905606235 1.4554848114848093
91 0.002072148376427229 -0.00951860097513966 1.4564366715823234
92 0.001982577179386627 -0.009301743516924161 1.4573668459340159
93 0.0018970380872308714 -0.009090407760324996 1.4582758867100485
94 0.0018153392110672553 -0.008884427384134577 1.459164329448462
95 0.0017372984776697082 -0.008683642221533979 1.4600326936706154
96 0.0016627430815491292 -0.008487897981111138 1.4608814834687265
97 0.0015915089707485503 -0.008297045982926663 1.461711188067019
98 0.0015234403640660497 -0.008110942908689502 1.462522282357888
99 0.0014583892975814667 -0.007929450565171959 1.4633152274144052
100 0.0013962151985207783 -0.0077524356600526464 1.4640904709804106
101 0.001336784484637965 -0.007579769589433303 1.464848447939354
102 0.0012799701874278838 -0.0074113282363274 1.4655895807629866
103 0.0012256515976060698 -0.007246991779464762 1.466314279940933
104 0.0011737139314050757 -0.007086644511802408 1.4670229443921132
105 0.0011240480163406078 -0.006930174668171324 1.4677159618589304
106 0.0010765499951969877 -0.006777474261527766 1.4683937092850832
107 0.0010311210470695747 -0.006628438927311704 1.4690565531778144
108 0.0009876671243836236 -0.006482967775448286 1.469704849955359
109 0.0009460987048842351 -0.006340963249557923 1.470338946280315
110 0.0009063305576616314 -0.006202330992968604 1.4709591793796117
111 0.0008682815223402398 -0.00606697972114981 1.4715658773517266
112 0.0008318743006196951 -0.005934821100212148 1.472159359461748
113 0.0007970352594104216 -0.005805769631137588 1.4727399364248617
114 0.0007636942448581753 -0.0056797425394287905 1.4733079106788045
115 0.0007317844065980572 -0.005556659669881661 1.4738635766457926
116 0.0007012420316233667 -0.00543644338620737 1.4744072209844132
117 0.0006720063871942195 -0.0053190184752432085 1.4749391228319375
118 0.0006440195722491959 -0.005204312055509987 1.4754595540374884
119 0.000617226376817856 -0.005092253489886873 1.475968779386477
120 0.000591574148964498 -0.0049827743021885655 1.476467056816696
121 0.0005670126688237254 -0.00487580809744252 1.4769546376264402
122 0.000543494029316411 -0.004771290485675749 1.4774317666750079
123 0.0005209725231607183 -0.004669159009031793 1.477898682575911
124 0.0004994045358171698 -0.004569353072048992 1.4783556178831159
125 0.00047874844402929763 -0.004471813874940691 1.4788027992706099
126 0.0004589645196424864 -0.004376484349727069 1.4792404477055825
127 0.0004400148384033623 -0.004283309099077343 1.4796687786154903
128 0.0004218631934601887 -0.004192234337728113 1.480088002049263
129 0.00040447501330209066 -0.00410320783635245 1.4804983228328983
130 0.00038781728389049904 -0.004016178867759472 1.4808999407196741
131 0.0003718584747514856 -0.003931098155312689 1.4812930505352053
132 0.000356568468811275 -0.0038479178234601245 1.4816778423175514
133 0.0003419184957704425 -0.0037665913502761424 1.482054501452579
134 0.00032788106882419854 -0.0036870735219190153 1.4824232088047709
135 0.0003144299245477565 -0.003609320388914546 1.4827841408436624
136 0.0003015399657764093 -0.0035332892241809223 1.4831374697660804
137 0.00028918720731960305 -0.0034589384827127872 1.4834833636143516
138 0.0002773487243581105 -0.003386227762849575 1.4838219863906366
139 0.0002660026033816275 -0.0033151177690542025 1.484153498167542
140 0.00025512789553271115 -0.003245570276134344 1.4844780551951553
141 0.00024470457223043084 -0.00317754809484078 1.4847958100046394
142 0.0002347134829543249 -0.0031110150387807485 1.4851069115085176
143 0.00022513631507615356 -0.0030459358925883045 1.4854115050977765
144 0.0002159555556329914 -0.002982276381294794 1.4857097327359061
145 0.00020715445494159688 -0.002920003140848287 1.486001733049991
146 0.00019871699195904465 -0.0028590836897297994 1.486287641418964
147 0.00019062784130039718 -0.002799486401620307 1.4865675900591262
148 0.00018287234182865923 -0.0027411804790716107 1.4868417081070333
149 0.00017543646673734068 -0.002684135928139519 1.4871101216998472
150 0.00016830679504988363 -0.0026283235339366754 1.487372954053241
151 0.00016147048446473524 -0.0025737148370675077 1.4876303255369479
152 0.00015491524547834622 -0.002520282110906815 1.4878823537480386
153 0.00014862931672232076 -0.0024679983396876702 1.4881291535820074
154 0.00014260144145416338 -0.002416837197364362 1.488370837301744
155 0.00013682084514440127 -0.002366773027218498 1.4886075146044657
156 0.00013127721410587968 -0.0023177808221777276 1.4888392926866836
157 0.00012596067511387485 -0.0022698362058177404 1.4890662763072653
158 0.00012086177596844553 -0.0022229154140202133 1.4892885678486674
159 0.00011597146695288073 -0.0021769952772596125 1.4895062673763932
160 0.00011128108314465309 -0.002132053203494284 1.4897194726967427
161 0.00010678232753739668 -0.0020880671616369277 1.4899282794129063
162 0.00010246725493475804 -0.0020450156655823664 1.4901327809794644
163 9.832825657881902e-05 -0.0020028777587699216 1.4903330687553413
164 9.435804547779944e-05 -0.001961632999259565 1.4905292320552672
165 9.054964239957755e-05 -0.0019212614453022368 1.4907213581997973
166 8.689636249918014e-05 -0.0018817436413846326 1.4909095325639359
167 8.33918025501072e-05 -0.0018430606047306248 1.491093838624409
168 8.002982875081156e-05 -0.0018051938122415425 1.4912743580056331
169 7.680456507913499e-05 -0.0017681251878586823 1.491451170524419
170 7.371038216885778e-05 -0.0017318370903320448 1.4916243542334522
171 7.07418866838357e-05 -0.0016963123013802677 1.4917939854635902
172 6.789391116636536e-05 -0.0016615340142267319 1.4919601388650128
173 6.516150433761904e-05 -0.001627485822497912 1.4921228874472625
174 6.253992182910471e-05 -0.001594151709470874 1.4922823026182097
175 6.002461732508696e-05 -0.001561516037656677 1.4924384542219753
176 5.761123409696813e-05 -0.0015295635387079659 1.492591410575846
177 5.5295596911434816e-05 -0.0014982793036379314 1.4927412385062098
178 5.307370429522905e-05 -0.0014676487733404982 1.4928880033835439
179 5.094172114012424e-05 -0.0014376577294006 1.4930317691564838
180 4.8895971632457724e-05 -0.001408292285183459 1.4931725983850022
181 4.693293249243968e-05 -0.0013795388771937914 1.4933105522727215
182 4.504922650909733e-05 -0.0013513842566952629 1.493445690698391
183 4.324161635736533e-05 -0.0013238154815804896 1.493578072246549
184 4.150699868456155e-05 -0.0012968199084834734 1.4937077542373973
185 3.9842398454031816e-05 -0.0012703851851257719 1.49383479275591
186 3.824496353432752e-05 -0.0012444992428879865 1.4939592426801986
187 3.671195952290711e-05 -0.001219150289599709 1.4940811577091586
188 3.5240764793746536e-05 -0.0011943268025393192 1.4942005903894124
189 3.3828865758872384e-05 -0.0011700175216374131 1.4943175921415761
190 3.247385233420755e-05 -0.0011462114428763936 1.4944322132858638
191 3.1173413600625795e-05 -0.0011228978118799592 1.4945445030670519
192 2.9925333651515378e-05 -0.0011000661176861339 1.4946545096788204
193 2.8727487618531932e-05 -0.0010777060866972437 1.49476228028749
194 2.757783786766744e-05 -0.0010558076768015796 1.4948678610551702
195 2.64744303580788e-05 -0.0010343610716608382 1.4949712971623363
196 2.5415391156476492e-05 -0.0010133566751577743 1.495072632829852
197 2.4398923100232465e-05 -0.0009927851059992254 1.495171911340452
198 2.342330260262713e-05 -0.000972637192468805 1.495269175059699
199 2.248687659403043e-05 -0.0009529039673252184 1.4953644654564315
200 2.1588059593028118e-05 -0.0009335766628409654 1.4954578231227156
201 2.0725330901819636e-05 -0.0009146467059772319 1.4955492877933132
202 1.989723192044596e-05 -0.0008961057136903705 1.4956388983646822
203 1.9102363574680525e-05 -0.000877945488366142 1.495726692913519
204 1.8339383852623225e-05 -0.000860158013377438 1.4958127087148567
205 1.7607005445288703e-05 -0.0008427354487619671 1.495896982259733
206 1.6903993486640957e-05 -0.0008256701270153104 1.4959795492724346
207 1.6229163388829867e-05 -0.0008089545489972525 1.4960604447273342
208 1.5581378768440534e-05 -0.0007925813799461542 1.496139702865329
209 1.4959549459889468e-05 -0.000776543445599573 1.496217357209889
210 1.4362629612173357e-05 -0.0007608337284169517 1.4962934405827306
211 1.3789615865392768e-05 -0.0007454453639014854 1.4963679851191207
212 1.3239545603640011e-05 -0.0007303716370186167 1.4964410222828226
213 1.2711495280941311e-05 -0.0007156059787073486 1.4965125828806933
214 1.2204578817162916e-05 -0.0007011419624826404 1.4965826970769416
215 1.1717946060858342e-05 -0.0006869733011253589 1.496651394407054
216 1.1250781316211847e-05 -0.0006730938434575648 1.4967187037913998
217 1.0802301931344619e-05 -0.0006594975712006401 1.4967846535485199
218 1.0371756945362687e-05 -0.0006461785959135964 1.4968492714081112
219 9.958425791654981e-06 -0.0006331311560094253 1.4969125845237121
220 9.561617055051106e-06 -0.0006203496138471904 1.4969746194850968
221 9.180667280551403e-06 -0.0006078284528975832 1.4970354023303865
222 8.814939831443097e-06 -0.0005955622749797743 1.4970949585578843
223 8.463823794723162e-06 -0.0005835457975678546 1.497153313137641
224 8.12673293181624e-06 -0.0005717738511644685 1.4972104905227575
225 7.80310467267819e-06 -0.0005602413767397876 1.4972665146604314
226 7.492399151470587e-06 -0.0005489434232344903 1.497321409002755
227 7.194098282027845e-06 -0.0005378751451239431 1.4973751965172672
228 6.907704871479443e-06 -0.0005270318000431732 1.4974278996972716
229 6.632741770386569e-06 -0.0005164087464695458 1.4974795405719186
230 6.368751057890384e-06 -0.0005060014414626282 1.4975301407160648
231 6.115293260392084e-06 -0.0004958054384592075 1.4975797212599107
232 5.871946602359759e-06 -0.00048581638512189897 1.497628302898423
233 5.638306287920768e-06 -0.00047603002123996064 1.4976759059005469
234 5.413983811955742e-06 -0.0004664421766809974 1.497722550118215
235 5.198606299455053e-06 -0.00045704876939183555 1.497768254995154
236 4.991815871971529e-06 -0.0004478458034477623 1.497813039575499
237 4.793269040027469e-06 -0.0004388293671482548 1.4978569225122138
238 4.602636120410187e-06 -0.0004299956311585885 1.4978999220753297
239 4.419600677297882e-06 -0.00042134084669502434 1.4979420561599992
240 4.2438589862604984e-06 -0.0004128613437540068 1.4979833422943747
241 4.075119520150796e-06 -0.00040455352938255384 1.498023797647313
242 3.913102456005808e-06 -0.0003964138859900648 1.498063439035912
243 3.7575392020676755e-06 -0.0003884389696994567 1.4981022829328818
244 3.6081719441077997e-06 -0.00038062540873742156 1.4981403454737556
245 3.464753210241389e-06 -0.00037296990186204464 1.498177642463942
246 3.3270454534793115e-06 -0.00036546921682736476 1.4982141893856247
247 3.1948206512846903e-06 -0.0003581201888839321 1.498250001404513
248 3.067859921418872e-06 -0.0003509197193136661 1.4982850933764444
249 2.9459531534247286e-06 -0.00034386477399919247 1.4983194798538444
250 2.8288986550894027e-06 -0.0003369523820260203 1.498353175092047
251 2.7165028132764488e-06 -0.0003301796343170793 1.4983861930554787
252 2.608579768530358e-06 -0.00032354368229843366 1.4984185474237086
253 2.5049511028993855e-06 -0.00031704173659610643 1.4984502515973683
254 2.4054455404199885e-06 -0.0003106710657623911 1.4984813187039445
255 2.3098986597476057e-06 -0.0003044289950311498 1.4985117616034476
256 2.2181526184439034e-06 -0.0002983129051019107 1.4985415928939578
257 2.1300558884297144e-06 -0.0002923202309512001 1.4985708249170528
258 2.0454630021606385e-06 -0.00028644846067137715 1.49859946976312
259 1.9642343090670855e-06 -0.00028069513433496874 1.4986275392765536
260 1.8862357418612603e-06 -0.00027505784288540356 1.498655045060842
261 1.8113385922950382e-06 -0.00026953422705263915 1.4986819984835473
262 1.7394192959758612e-06 -0.00026412197629253946 1.4987084106811766
263 1.6703592258922706e-06 -0.0002588188277509975 1.4987342925639517
264 1.6040444942730638e-06 -0.00025362256525068605 1.498759654820477
265 1.540365762448841e-06 -0.00024853101830050317 1.498784507922307
266 1.47921805839187e-06 -0.0002435420611273364 1.4988088621284197
267 1.4205006016178838e-06 -0.00023865361172932813 1.4988327274895925
268 1.3641166351483153e-06 -0.0002338636309499595 1.4988561138526875
269 1.3099732642521204e-06 -0.00022917012157298584 1.4988790308648448
270 1.2579813016870717e-06 -0.00022457112743736816 1.4989014879775886
271 1.208055119173296e-06 -0.00022006473257143677 1.4989234944508458
272 1.1601125048574251e-06 -0.0002156490603468601 1.4989450593568805
273 1.114074526506539e-06 -0.00021132227265036887 1.4989661915841455
274 1.069865400215893e-06 -0.00020708256907430163 1.498986899841053
275 1.0274123643992202e-06 -0.00020292818612486062 1.4990071926596653
276 9.866455588463798e-07 -0.00019885739644754565 1.49902707839931
277 9.474979086441446e-07 -0.00019486850806945918 1.499046565250117
278 9.09905012767464e-07 -0.00019095986365853267 1.499065661236483
279 8.738050371454496e-07 -0.00018712983979861353 1.499084374220463
280 8.391386120235757e-07 -0.0001833768462802886 1.499102711905091
281 8.058487334513138e-07 -0.00017969932540740923 1.4991206818376317
282 7.738806687235481e-07 -0.00017609575131844103 1.4991382914127636
283 7.43181865617362e-07 -0.00017256462932242758 1.4991555478756957
284 7.137018652757806e-07 -0.00016910449524980598 1.4991724583252206
285 6.853922185811252e-07 -0.0001657139148165767 1.4991890297167023
286 6.58206405887979e-07 -0.0001623914830027791 1.4992052688650026
287 6.320997599734962e-07 -0.00015913582344417767 1.499221182447347
288 6.070293920741404e-07 -0.00015594558783668991 1.4992367770061306
289 5.829541208918319e-07 -0.00015281945535419717 1.499252058951666
290 5.598344044420315e-07 -0.00014975613207847058 1.499267034564874
291 5.376322746327513e-07 -0.00014675435044136703 1.499281709999918
292 5.163112744649811e-07 -0.00014381286867909572 1.4992960912867859
293 4.958363977468733e-07 -0.00014093047029800098 1.4993101843338157
294 4.761740312222669e-07 -0.00013810596355184117 1.4993239949301709
295 4.5729189901582866e-07 -0.00013533818093023375 1.499337528748264
296 4.391590093004807e-07 -0.0001326259786578473 1.4993507913461297
297 4.2174560310075e-07 -0.000129968236204546 1.4993637881697501
298 4.0502310514143385e-07 -0.0001273638558055353 1.4993765245553308
